ID, S_SFSH, E_SFSH, S_SFSL, E_SFSL,S_PSFSH, E_PSFSH
1, 1595958861.526155441,1595958861.799760095,1595958861.802091043,1595958861.953424869,1595958861.956040350,1595958862.025636636
2, 1595958862.029546902,1595958862.200765411,1595958862.203333330,1595958862.350253684,1595958862.352666835,1595958862.429072004
3, 1595958862.433415006,1595958862.607191936,1595958862.609534617,1595958862.751036975,1595958862.753352139,1595958862.823078678
4, 1595958862.826805611,1595958862.987705369,1595958862.989974578,1595958863.108786803,1595958863.110722381,1595958863.180216070
5, 1595958863.183833911,1595958863.349462264,1595958863.351714013,1595958863.493603010,1595958863.495890168,1595958863.575660284
6, 1595958863.578997992,1595958863.747802511,1595958863.750257847,1595958863.896610183,1595958863.899276439,1595958863.987661110
7, 1595958863.991297599,1595958864.163588868,1595958864.166137581,1595958864.304261722,1595958864.306597349,1595958864.373704496
8, 1595958864.377008541,1595958864.533309400,1595958864.535665980,1595958864.679101749,1595958864.681479072,1595958864.754091797
9, 1595958864.758045225,1595958864.927256988,1595958864.929556717,1595958865.068283796,1595958865.070683957,1595958865.140129595
10, 1595958865.144563042,1595958865.309846449,1595958865.312073893,1595958865.445624556,1595958865.448283758,1595958865.532640830
11, 1595958865.536356240,1595958865.700733319,1595958865.703046737,1595958865.837304402,1595958865.839664824,1595958865.907096103
12, 1595958865.911354807,1595958866.069326196,1595958866.071662941,1595958866.204183796,1595958866.206573830,1595958866.277441923
13, 1595958866.281317338,1595958866.446875850,1595958866.449201491,1595958866.581322505,1595958866.583703670,1595958866.653221803
14, 1595958866.657539313,1595958866.821077530,1595958866.823246237,1595958866.957666772,1595958866.960283510,1595958867.035604255
15, 1595958867.039547836,1595958867.203274484,1595958867.205556684,1595958867.348747520,1595958867.351381020,1595958867.430081379
16, 1595958867.433727436,1595958867.603452811,1595958867.605943416,1595958867.748388559,1595958867.750749748,1595958867.818722855
17, 1595958867.823251356,1595958867.990307960,1595958867.992677531,1595958868.130256003,1595958868.132581713,1595958868.199707088
18, 1595958868.203281768,1595958868.363826524,1595958868.366289122,1595958868.493609396,1595958868.495768675,1595958868.568160911
19, 1595958868.572623132,1595958868.743544885,1595958868.746092481,1595958868.880099556,1595958868.882390206,1595958868.954632284
20, 1595958868.958094798,1595958869.124573677,1595958869.127182803,1595958869.261624220,1595958869.264164063,1595958869.341920658
21, 1595958869.345630340,1595958869.509845947,1595958869.512141835,1595958869.639260896,1595958869.641422829,1595958869.713102476
22, 1595958869.717505262,1595958869.877996799,1595958869.880259791,1595958870.007690973,1595958870.010061521,1595958870.081122864
23, 1595958870.085663237,1595958870.240169318,1595958870.242450819,1595958870.374673173,1595958870.377313587,1595958870.450131715
24, 1595958870.454729637,1595958870.607597314,1595958870.609629272,1595958870.729462924,1595958870.731364419,1595958870.797225670
25, 1595958870.801023562,1595958870.961767924,1595958870.963901501,1595958871.083404525,1595958871.085411689,1595958871.160663921
26, 1595958871.164588644,1595958871.336309799,1595958871.338554424,1595958871.477669541,1595958871.480036806,1595958871.551786504
27, 1595958871.555428929,1595958871.714127923,1595958871.716332878,1595958871.849678697,1595958871.852322604,1595958871.931247152
28, 1595958871.935811969,1595958872.103095698,1595958872.105731153,1595958872.244067052,1595958872.246273823,1595958872.313251694
29, 1595958872.317714893,1595958872.486037229,1595958872.488268933,1595958872.609925997,1595958872.612240952,1595958872.684536667
30, 1595958872.687763887,1595958872.831025613,1595958872.833099406,1595958872.970423027,1595958872.972844909,1595958873.044586505
31, 1595958873.049474338,1595958873.215832182,1595958873.218434882,1595958873.359055075,1595958873.361364024,1595958873.435535533
32, 1595958873.439656370,1595958873.607810040,1595958873.610001236,1595958873.739072008,1595958873.741336607,1595958873.817677802
33, 1595958873.821642823,1595958873.981543923,1595958873.984074757,1595958874.115092561,1595958874.117400741,1595958874.189880907
34, 1595958874.194115515,1595958874.366731056,1595958874.369444804,1595958874.510323061,1595958874.512515793,1595958874.589041159
35, 1595958874.593246224,1595958874.766661028,1595958874.769356617,1595958874.911606134,1595958874.914181736,1595958874.986626004
36, 1595958874.990653813,1595958875.162642390,1595958875.165211496,1595958875.310892380,1595958875.313570788,1595958875.392043254
37, 1595958875.396561558,1595958875.561566090,1595958875.564150771,1595958875.699241920,1595958875.701558202,1595958875.773870889
38, 1595958875.777671784,1595958875.949955579,1595958875.952612337,1595958876.090120688,1595958876.092434665,1595958876.167737251
39, 1595958876.172561948,1595958876.323234308,1595958876.325602272,1595958876.460000876,1595958876.462280492,1595958876.540634717
40, 1595958876.544354736,1595958876.702687762,1595958876.705368056,1595958876.851626945,1595958876.854316108,1595958876.926263805
41, 1595958876.930428154,1595958877.103752862,1595958877.106421841,1595958877.246512150,1595958877.248905606,1595958877.325190508
42, 1595958877.329747294,1595958877.498288372,1595958877.500513791,1595958877.644064728,1595958877.646176725,1595958877.723752431
43, 1595958877.727773465,1595958877.899785649,1595958877.902328425,1595958878.042163674,1595958878.044526749,1595958878.119001090
44, 1595958878.122792766,1595958878.292749384,1595958878.295438408,1595958878.434213748,1595958878.436587858,1595958878.507143970
45, 1595958878.511719334,1595958878.684625973,1595958878.687265758,1595958878.828466541,1595958878.830919991,1595958878.901167615
46, 1595958878.905540439,1595958879.071304913,1595958879.073614420,1595958879.201070116,1595958879.203384721,1595958879.281928635
47, 1595958879.285752787,1595958879.450046826,1595958879.452152187,1595958879.578744856,1595958879.580887861,1595958879.651580792
48, 1595958879.654723784,1595958879.821617868,1595958879.824262962,1595958879.968356845,1595958879.970661742,1595958880.048087989
49, 1595958880.051864788,1595958880.216609930,1595958880.219098091,1595958880.367662506,1595958880.370307739,1595958880.446167658
50, 1595958880.450135962,1595958880.617631658,1595958880.620258593,1595958880.762186842,1595958880.764483428,1595958880.841300311
51, 1595958880.844664838,1595958881.010040785,1595958881.012224369,1595958881.142202098,1595958881.144563078,1595958881.213278108
52, 1595958881.217117276,1595958881.377176217,1595958881.379560663,1595958881.514679749,1595958881.517009161,1595958881.595280275
53, 1595958881.599767709,1595958881.773052398,1595958881.775331035,1595958881.910529391,1595958881.913029075,1595958881.992611737
54, 1595958881.996446924,1595958882.162685968,1595958882.164891342,1595958882.297641486,1595958882.299532504,1595958882.368666721
55, 1595958882.372289940,1595958882.533323584,1595958882.535569745,1595958882.664551190,1595958882.666975376,1595958882.746727473
56, 1595958882.750657225,1595958882.909696484,1595958882.911915058,1595958883.039589776,1595958883.042241086,1595958883.117682516
57, 1595958883.121715424,1595958883.284293604,1595958883.286614076,1595958883.419476245,1595958883.422059809,1595958883.499483821
58, 1595958883.503474195,1595958883.671780537,1595958883.674424234,1595958883.811164123,1595958883.813627839,1595958883.893136609
59, 1595958883.898816929,1595958884.063673747,1595958884.066297819,1595958884.203544964,1595958884.206074052,1595958884.281711596
60, 1595958884.285672148,1595958884.448634036,1595958884.451321593,1595958884.590023740,1595958884.592338485,1595958884.665155355
61, 1595958884.669767804,1595958884.850332455,1595958884.852742184,1595958884.990646605,1595958884.992835496,1595958885.059896548
62, 1595958885.064983218,1595958885.219646511,1595958885.221761091,1595958885.342308380,1595958885.344311005,1595958885.417095399
63, 1595958885.421666782,1595958885.585413964,1595958885.587838569,1595958885.719226391,1595958885.721696603,1595958885.792271712
64, 1595958885.796269489,1595958885.964198479,1595958885.966539275,1595958886.094586735,1595958886.096842534,1595958886.174084400
65, 1595958886.178648240,1595958886.347656276,1595958886.350204360,1595958886.476060275,1595958886.478359795,1595958886.546652704
66, 1595958886.550563669,1595958886.716694040,1595958886.719424061,1595958886.854595737,1595958886.857149618,1595958886.930697935
67, 1595958886.934569649,1595958887.100236764,1595958887.102499338,1595958887.245581362,1595958887.248161014,1595958887.320160464
68, 1595958887.324714386,1595958887.492735008,1595958887.495158775,1595958887.622658541,1595958887.624582944,1595958887.701218448
69, 1595958887.705210708,1595958887.872716601,1595958887.875355688,1595958888.020702242,1595958888.022720651,1595958888.100571951
70, 1595958888.104378852,1595958888.271436295,1595958888.273854335,1595958888.407584350,1595958888.409604435,1595958888.490734846
71, 1595958888.495055150,1595958888.652397200,1595958888.654752174,1595958888.781558068,1595958888.783584159,1595958888.860122934
72, 1595958888.863818997,1595958889.033669737,1595958889.036283402,1595958889.174218273,1595958889.176384047,1595958889.243706375
73, 1595958889.247695771,1595958889.415382482,1595958889.417820846,1595958889.541764371,1595958889.543669078,1595958889.610832238
74, 1595958889.615399779,1595958889.775538199,1595958889.778067286,1595958889.912535453,1595958889.914879741,1595958889.977778958
75, 1595958889.982626912,1595958890.152464661,1595958890.154944650,1595958890.296899228,1595958890.299570233,1595958890.379128939
76, 1595958890.383709192,1595958890.547550310,1595958890.550087778,1595958890.678916062,1595958890.681414978,1595958890.752588417
77, 1595958890.756146823,1595958890.902895787,1595958890.905241961,1595958891.036663726,1595958891.039196235,1595958891.116322235
78, 1595958891.120880277,1595958891.289519902,1595958891.292026640,1595958891.429779435,1595958891.432290434,1595958891.504449890
79, 1595958891.508405413,1595958891.676621590,1595958891.679125256,1595958891.827609283,1595958891.830201996,1595958891.908884684
80, 1595958891.912619021,1595958892.078578630,1595958892.080555694,1595958892.218514590,1595958892.221026916,1595958892.295518856
81, 1595958892.299226583,1595958892.458464052,1595958892.460903464,1595958892.601329010,1595958892.603742790,1595958892.674831511
82, 1595958892.679434252,1595958892.845401544,1595958892.847682556,1595958892.989908397,1595958892.992375676,1595958893.071109418
83, 1595958893.075695747,1595958893.245200493,1595958893.247631384,1595958893.395611298,1595958893.398164690,1595958893.466710146
84, 1595958893.470644018,1595958893.650134093,1595958893.652512673,1595958893.797514561,1595958893.800017458,1595958893.871663162
85, 1595958893.875692996,1595958894.051277065,1595958894.053653760,1595958894.202131711,1595958894.204468107,1595958894.281511204
86, 1595958894.285397585,1595958894.446570422,1595958894.448995237,1595958894.589763074,1595958894.591961744,1595958894.676224949
87, 1595958894.680145412,1595958894.838134890,1595958894.840370645,1595958894.973826324,1595958894.976104472,1595958895.059557660
88, 1595958895.063665298,1595958895.237729903,1595958895.240193759,1595958895.382652381,1595958895.385170433,1595958895.469544058
89, 1595958895.474397948,1595958895.636658840,1595958895.638780754,1595958895.763038633,1595958895.765350724,1595958895.844425361
90, 1595958895.848458339,1595958896.017512749,1595958896.020062929,1595958896.166474211,1595958896.168966143,1595958896.241008475
91, 1595958896.245051928,1595958896.412730119,1595958896.415314032,1595958896.546064623,1595958896.548376226,1595958896.621660054
92, 1595958896.625456269,1595958896.776276902,1595958896.778610923,1595958896.922502476,1595958896.924941609,1595958896.991554839
93, 1595958896.995580622,1595958897.168619261,1595958897.171203732,1595958897.315614415,1595958897.318173604,1595958897.394038132
94, 1595958897.398828257,1595958897.573654899,1595958897.576306837,1595958897.710616184,1595958897.713041279,1595958897.785758905
95, 1595958897.790433931,1595958897.943899658,1595958897.946275025,1595958898.077930479,1595958898.080358367,1595958898.154826840
96, 1595958898.158221050,1595958898.320377041,1595958898.322885805,1595958898.452579281,1595958898.454905759,1595958898.532882982
97, 1595958898.536461294,1595958898.695483722,1595958898.698175749,1595958898.831285574,1595958898.833681056,1595958898.914621639
98, 1595958898.918683740,1595958899.079115842,1595958899.081545196,1595958899.215582023,1595958899.217969194,1595958899.296603552
99, 1595958899.300327761,1595958899.462195238,1595958899.464476041,1595958899.599436797,1595958899.601420914,1595958899.672258067
100, 1595958899.676208142,1595958899.827680952,1595958899.829976840,1595958899.954480280,1595958899.956572512,1595958900.024070839
101, 1595958900.028372425,1595958900.185604475,1595958900.187757747,1595958900.320135847,1595958900.322067723,1595958900.402683056
102, 1595958900.406441418,1595958900.575090261,1595958900.577590504,1595958900.712676136,1595958900.714699154,1595958900.787133784
103, 1595958900.791042584,1595958900.948008120,1595958900.950344027,1595958901.077323965,1595958901.079804583,1595958901.155642432
104, 1595958901.159292330,1595958901.326875397,1595958901.329383602,1595958901.453481056,1595958901.455542767,1595958901.526165717
105, 1595958901.530326853,1595958901.688103315,1595958901.690160486,1595958901.814605260,1595958901.816241358,1595958901.887637520
106, 1595958901.890967825,1595958902.045151239,1595958902.047513337,1595958902.173643448,1595958902.175700619,1595958902.247034133
107, 1595958902.250665034,1595958902.409800116,1595958902.412036919,1595958902.541435665,1595958902.543608842,1595958902.618744718
108, 1595958902.621979550,1595958902.779404502,1595958902.781853342,1595958902.912374505,1595958902.914840526,1595958902.992973425
109, 1595958902.996368264,1595958903.154028859,1595958903.156247712,1595958903.287086583,1595958903.289236573,1595958903.349664601
110, 1595958903.354503475,1595958903.507560282,1595958903.509968754,1595958903.649586168,1595958903.652253192,1595958903.727089310
111, 1595958903.731012287,1595958903.898717646,1595958903.901318460,1595958904.039694937,1595958904.041967568,1595958904.116173299
112, 1595958904.120837431,1595958904.289381303,1595958904.291753457,1595958904.427257088,1595958904.429719757,1595958904.508727277
113, 1595958904.512586768,1595958904.684682761,1595958904.686997715,1595958904.826033143,1595958904.828334828,1595958904.900164145
114, 1595958904.904268290,1595958905.070618311,1595958905.073086079,1595958905.213716678,1595958905.216350947,1595958905.295029096
115, 1595958905.299381805,1595958905.466265483,1595958905.468462057,1595958905.604355960,1595958905.606733702,1595958905.681723470
116, 1595958905.685502505,1595958905.838670429,1595958905.840687860,1595958905.969477592,1595958905.972066952,1595958906.043697221
117, 1595958906.047482262,1595958906.214716473,1595958906.217432456,1595958906.362626755,1595958906.365166179,1595958906.439104838
118, 1595958906.443045485,1595958906.615680023,1595958906.618300044,1595958906.753323726,1595958906.755670878,1595958906.832635264
119, 1595958906.836615930,1595958907.006548174,1595958907.009088437,1595958907.154737961,1595958907.157305461,1595958907.230935073
120, 1595958907.235408957,1595958907.404339190,1595958907.406742494,1595958907.544143779,1595958907.546598485,1595958907.624199893
121, 1595958907.628748577,1595958907.795051247,1595958907.797398817,1595958907.930779836,1595958907.933061127,1595958908.005683559
122, 1595958908.009364747,1595958908.164741048,1595958908.166963323,1595958908.294183375,1595958908.296711694,1595958908.374271337
123, 1595958908.378742986,1595958908.541387097,1595958908.543520604,1595958908.671352465,1595958908.673364588,1595958908.741279238
124, 1595958908.745054641,1595958908.898569326,1595958908.900611691,1595958909.017259539,1595958909.019092729,1595958909.085274062
125, 1595958909.088673300,1595958909.236330827,1595958909.238444011,1595958909.357282985,1595958909.359371934,1595958909.429664885
126, 1595958909.433261145,1595958909.577162475,1595958909.579154205,1595958909.702327521,1595958909.704719022,1595958909.772996497
127, 1595958909.776588287,1595958909.933717182,1595958909.936061749,1595958910.066457199,1595958910.068761677,1595958910.144192282
128, 1595958910.148430453,1595958910.313242153,1595958910.315758390,1595958910.447344002,1595958910.449668386,1595958910.531450135
129, 1595958910.535110161,1595958910.704593047,1595958910.707133519,1595958910.847583509,1595958910.850274698,1595958910.931664220
130, 1595958910.935548226,1595958911.098671377,1595958911.101024744,1595958911.241415649,1595958911.244097060,1595958911.322260550
131, 1595958911.326586231,1595958911.500522189,1595958911.503007556,1595958911.639632207,1595958911.642264380,1595958911.712126131
132, 1595958911.716564047,1595958911.874386185,1595958911.876710639,1595958912.012299755,1595958912.014694049,1595958912.087533757
133, 1595958912.091191897,1595958912.253197729,1595958912.255530005,1595958912.383506087,1595958912.386142311,1595958912.468336403
134, 1595958912.472678008,1595958912.638842182,1595958912.641046159,1595958912.779671969,1595958912.782301977,1595958912.852086274
135, 1595958912.856353708,1595958913.014577782,1595958913.016959226,1595958913.155464559,1595958913.158041767,1595958913.228189099
136, 1595958913.232784367,1595958913.395600706,1595958913.398141108,1595958913.528113949,1595958913.530399500,1595958913.608073263
137, 1595958913.612694932,1595958913.776767713,1595958913.779393810,1595958913.916521317,1595958913.919088817,1595958913.996910085
138, 1595958914.001659213,1595958914.172434580,1595958914.174875947,1595958914.308464394,1595958914.310878313,1595958914.385773237
139, 1595958914.390526067,1595958914.547753228,1595958914.550105478,1595958914.679374040,1595958914.681723636,1595958914.763712395
140, 1595958914.768020057,1595958914.931748731,1595958914.933924073,1595958915.068700029,1595958915.071330875,1595958915.146068237
141, 1595958915.150125240,1595958915.309682721,1595958915.312324392,1595958915.446130883,1595958915.448338981,1595958915.521612123
142, 1595958915.525667240,1595958915.684674024,1595958915.686985207,1595958915.823730055,1595958915.826109682,1595958915.900106938
143, 1595958915.904676784,1595958916.063668482,1595958916.066283544,1595958916.209715262,1595958916.212392413,1595958916.290218849
144, 1595958916.294345134,1595958916.455732313,1595958916.458349541,1595958916.591239087,1595958916.593483642,1595958916.669247389
145, 1595958916.673433738,1595958916.844790043,1595958916.847507282,1595958916.987664289,1595958916.990282354,1595958917.066156661
146, 1595958917.070936659,1595958917.237282001,1595958917.239690752,1595958917.375502522,1595958917.377927197,1595958917.452777492
147, 1595958917.456676305,1595958917.624798336,1595958917.627420382,1595958917.764254138,1595958917.766703676,1595958917.835627740
148, 1595958917.839676501,1595958918.019771820,1595958918.022455815,1595958918.156698604,1595958918.158681534,1595958918.231699267
149, 1595958918.235617215,1595958918.385564415,1595958918.387621795,1595958918.512412772,1595958918.514431600,1595958918.583948895
150, 1595958918.588503166,1595958918.765420503,1595958918.768036263,1595958918.916517427,1595958918.919046515,1595958918.989707389
151, 1595958918.994381926,1595958919.158714028,1595958919.161439858,1595958919.297306383,1595958919.299628881,1595958919.375364133
152, 1595958919.379467720,1595958919.544397172,1595958919.546753054,1595958919.676436612,1595958919.679083801,1595958919.751070330
153, 1595958919.755231955,1595958919.916176760,1595958919.918555899,1595958920.053286528,1595958920.055580111,1595958920.130570647
