ID, S_SFSH, E_SFSH, S_SFSL, E_SFSL,S_PSFSH, E_PSFSH
1, 1595959246.133573595, 1595959246.192466444, 1595959245.988585747, 1595959246.024520135,1595959246.300734610, 1595959246.311366528
2, 1595959246.571564821, 1595959246.627425936, 1595959246.425776594, 1595959246.460069715,1595959246.746710146, 1595959246.756937125
3, 1595959247.025758705, 1595959247.083389734, 1595959246.873463797, 1595959246.908253000,1595959247.197742531, 1595959247.208081605
4, 1595959247.484375210, 1595959247.548399637, 1595959247.341136603, 1595959247.376908750,1595959247.664347116, 1595959247.675174031
5, 1595959247.935879511, 1595959247.998323992, 1595959247.788719045, 1595959247.825850440,1595959248.111587825, 1595959248.122183914
6, 1595959248.390801069, 1595959248.454777725, 1595959248.233298247, 1595959248.269861484,1595959248.568567882, 1595959248.580084547
7, 1595959248.849068228, 1595959248.908693013, 1595959248.697703674, 1595959248.732459353,1595959249.025705500, 1595959249.037669847
8, 1595959249.316602679, 1595959249.374646190, 1595959249.164847364, 1595959249.202574434,1595959249.486903123, 1595959249.498318449
9, 1595959249.750761093, 1595959249.809459854, 1595959249.603715516, 1595959249.638897156,1595959249.915509166, 1595959249.925742710
10, 1595959250.184355470, 1595959250.252812994, 1595959250.034156425, 1595959250.067414570,1595959250.376070537, 1595959250.387545926
11, 1595959250.671277893, 1595959250.736578528, 1595959250.516804849, 1595959250.556830252,1595959250.861821934, 1595959250.873528567
12, 1595959251.145369729, 1595959251.211760584, 1595959250.993896363, 1595959251.031863407,1595959251.321590049, 1595959251.332656099
13, 1595959251.596349174, 1595959251.662922663, 1595959251.444331675, 1595959251.482664897,1595959251.780670927, 1595959251.792232361
14, 1595959252.052556089, 1595959252.115598759, 1595959251.913395717, 1595959251.947782006,1595959252.232916592, 1595959252.244470203
15, 1595959252.518956668, 1595959252.579993641, 1595959252.369644047, 1595959252.407795752,1595959252.696888166, 1595959252.707826198
16, 1595959252.992078830, 1595959253.059684642, 1595959252.832061796, 1595959252.872133783,1595959253.177612397, 1595959253.188608047
17, 1595959253.470254487, 1595959253.534831358, 1595959253.322138804, 1595959253.362367724,1595959253.659002633, 1595959253.670884987
18, 1595959253.961972553, 1595959254.026230878, 1595959253.808649025, 1595959253.845320167,1595959254.148003947, 1595959254.158745656
19, 1595959254.425578788, 1595959254.489113210, 1595959254.278343871, 1595959254.314904734,1595959254.604513274, 1595959254.615416944
20, 1595959254.886641828, 1595959254.949959184, 1595959254.729411456, 1595959254.767303421,1595959255.062404548, 1595959255.073062377
21, 1595959255.346901066, 1595959255.408987820, 1595959255.200818039, 1595959255.239591120,1595959255.533569901, 1595959255.544372580
22, 1595959255.821103111, 1595959255.885965423, 1595959255.661605556, 1595959255.702073891,1595959256.002803866, 1595959256.013387523
23, 1595959256.271868632, 1595959256.332668913, 1595959256.128521982, 1595959256.163138956,1595959256.444376267, 1595959256.455214286
24, 1595959256.724615058, 1595959256.787041241, 1595959256.571660361, 1595959256.612741902,1595959256.903632097, 1595959256.913923888
25, 1595959257.172574921, 1595959257.230710203, 1595959257.034064002, 1595959257.068369205,1595959257.342744832, 1595959257.352485856
26, 1595959257.595908236, 1595959257.649933088, 1595959257.464872066, 1595959257.495728583,1595959257.761948371, 1595959257.772731844
27, 1595959258.041074174, 1595959258.104636742, 1595959257.889511620, 1595959257.927664722,1595959258.219588426, 1595959258.230084363
28, 1595959258.477358901, 1595959258.529607902, 1595959258.345802065, 1595959258.381371882,1595959258.641702035, 1595959258.651853027
29, 1595959258.914529703, 1595959258.971632105, 1595959258.772345768, 1595959258.805480713,1595959259.077223469, 1595959259.086965890
30, 1595959259.319696498, 1595959259.377604098, 1595959259.189235260, 1595959259.221631356,1595959259.476546376, 1595959259.485661693
31, 1595959259.743089109, 1595959259.803548565, 1595959259.602715736, 1595959259.641078500,1595959259.909318163, 1595959259.919588723
32, 1595959260.186253119, 1595959260.244287830, 1595959260.046433377, 1595959260.081552300,1595959260.361265886, 1595959260.372918951
33, 1595959260.629360489, 1595959260.695148964, 1595959260.484719682, 1595959260.519687189,1595959260.808572594, 1595959260.818681122
34, 1595959261.093160673, 1595959261.157410897, 1595959260.941742272, 1595959260.977775205,1595959261.270842000, 1595959261.280944033
35, 1595959261.555228517, 1595959261.625004293, 1595959261.404545613, 1595959261.441903782,1595959261.737362776, 1595959261.746435909
36, 1595959262.007590118, 1595959262.063794921, 1595959261.870074575, 1595959261.906100594,1595959262.168422198, 1595959262.177455382
37, 1595959262.436050263, 1595959262.500355242, 1595959262.293085713, 1595959262.326544442,1595959262.617653170, 1595959262.628804147
38, 1595959262.900835486, 1595959262.966564736, 1595959262.752715822, 1595959262.790350283,1595959263.076103592, 1595959263.085934781
39, 1595959263.337415293, 1595959263.396792630, 1595959263.199602785, 1595959263.232338378,1595959263.522148759, 1595959263.532915052
40, 1595959263.806418712, 1595959263.865947604, 1595959263.658079746, 1595959263.695998601,1595959263.977102375, 1595959263.987353519
41, 1595959264.243930688, 1595959264.304117624, 1595959264.099259221, 1595959264.135242707,1595959264.410262270, 1595959264.420668810
42, 1595959264.664828014, 1595959264.715030110, 1595959264.529505902, 1595959264.564594304,1595959264.816531297, 1595959264.825399447
43, 1595959265.084289965, 1595959265.137306589, 1595959264.942799692, 1595959264.978322855,1595959265.246775673, 1595959265.256790545
44, 1595959265.505653271, 1595959265.567298280, 1595959265.369431535, 1595959265.402569413,1595959265.680427599, 1595959265.690746349
45, 1595959265.947211633, 1595959266.012241145, 1595959265.796844621, 1595959265.831654217,1595959266.136902215, 1595959266.148391293
46, 1595959266.407858280, 1595959266.470265396, 1595959266.261550435, 1595959266.300230976,1595959266.584893157, 1595959266.596290394
47, 1595959266.855375978, 1595959266.913105134, 1595959266.715582915, 1595959266.751520236,1595959267.012546706, 1595959267.022292479
48, 1595959267.290555120, 1595959267.344369331, 1595959267.141351242, 1595959267.181362677,1595959267.454929823, 1595959267.465725518
49, 1595959267.724332341, 1595959267.779827628, 1595959267.582799745, 1595959267.618552545,1595959267.888735399, 1595959267.899891824
50, 1595959268.165642907, 1595959268.226353931, 1595959268.020164076, 1595959268.055870154,1595959268.350102038, 1595959268.361806995
51, 1595959268.629600932, 1595959268.685929773, 1595959268.486617945, 1595959268.521696080,1595959268.797593895, 1595959268.807541160
52, 1595959269.069815481, 1595959269.136408107, 1595959268.922060318, 1595959268.959751281,1595959269.257225540, 1595959269.269121932
53, 1595959269.533309621, 1595959269.596148286, 1595959269.387371026, 1595959269.423647915,1595959269.714340180, 1595959269.726280642
54, 1595959269.987145848, 1595959270.046556709, 1595959269.847325826, 1595959269.880890923,1595959270.164412249, 1595959270.176209606
55, 1595959270.419835014, 1595959270.484258164, 1595959270.282806054, 1595959270.319434732,1595959270.602165665, 1595959270.613950311
56, 1595959270.878556768, 1595959270.942888148, 1595959270.723762735, 1595959270.764666600,1595959271.057401369, 1595959271.067727802
57, 1595959271.316784895, 1595959271.379702550, 1595959271.177201216, 1595959271.214484726,1595959271.500175596, 1595959271.511792973
58, 1595959271.772586173, 1595959271.832400017, 1595959271.627729138, 1595959271.663481869,1595959271.947715923, 1595959271.959108690
59, 1595959272.206913812, 1595959272.269078998, 1595959272.062861696, 1595959272.099516355,1595959272.384760871, 1595959272.396200991
60, 1595959272.660299353, 1595959272.722260394, 1595959272.514804040, 1595959272.553658067,1595959272.832381864, 1595959272.842470837
61, 1595959273.098747899, 1595959273.158045408, 1595959272.961299823, 1595959272.992209838,1595959273.266797573, 1595959273.278143686
62, 1595959273.549946296, 1595959273.614566817, 1595959273.397973984, 1595959273.433086691,1595959273.726228355, 1595959273.736752927
63, 1595959274.017347489, 1595959274.083880960, 1595959273.863457410, 1595959273.902341049,1595959274.208206793, 1595959274.219356722
64, 1595959274.492783348, 1595959274.559569923, 1595959274.336905240, 1595959274.376550847,1595959274.673562409, 1595959274.684360548
65, 1595959274.948638263, 1595959275.005303459, 1595959274.806576201, 1595959274.841517727,1595959275.115745081, 1595959275.126373158
66, 1595959275.395849009, 1595959275.456194973, 1595959275.248674505, 1595959275.286434960,1595959275.574124056, 1595959275.585385591
67, 1595959275.862705721, 1595959275.922519146, 1595959275.713224574, 1595959275.748535070,1595959276.038417388, 1595959276.049313165
68, 1595959276.323051911, 1595959276.387830902, 1595959276.174599244, 1595959276.208900676,1595959276.504911484, 1595959276.516305090
69, 1595959276.774658459, 1595959276.831671743, 1595959276.630911479, 1595959276.666581588,1595959276.949719136, 1595959276.961689490
70, 1595959277.241968510, 1595959277.301146520, 1595959277.094393048, 1595959277.132405629,1595959277.414156271, 1595959277.426157285
71, 1595959277.692754843, 1595959277.749697937, 1595959277.547591346, 1595959277.583572038,1595959277.864928148, 1595959277.876385798
72, 1595959278.125570840, 1595959278.184920451, 1595959277.982181308, 1595959278.016801425,1595959278.310093317, 1595959278.321644903
73, 1595959278.575094725, 1595959278.641434666, 1595959278.432372944, 1595959278.470966603,1595959278.757970278, 1595959278.769702473
74, 1595959279.036640926, 1595959279.099999837, 1595959278.887589581, 1595959278.923954679,1595959279.208467609, 1595959279.219129558
75, 1595959279.483068473, 1595959279.547539395, 1595959279.330373446, 1595959279.366307624,1595959279.665719137, 1595959279.677075587
76, 1595959279.936227171, 1595959279.999413714, 1595959279.792401341, 1595959279.827341889,1595959280.115660603, 1595959280.126263117
77, 1595959280.383257308, 1595959280.448429226, 1595959280.233783843, 1595959280.269620942,1595959280.559333336, 1595959280.568810710
78, 1595959280.842364237, 1595959280.905890557, 1595959280.691237492, 1595959280.726597436,1595959281.025000374, 1595959281.036279859
79, 1595959281.299229055, 1595959281.363950008, 1595959281.146640256, 1595959281.181412207,1595959281.481851643, 1595959281.492654112
80, 1595959281.763324876, 1595959281.830509406, 1595959281.607727041, 1595959281.645059858,1595959281.947651797, 1595959281.958571670
81, 1595959282.229312415, 1595959282.294690573, 1595959282.086643922, 1595959282.121661854,1595959282.408602951, 1595959282.419208749
82, 1595959282.692072175, 1595959282.749900086, 1595959282.549961015, 1595959282.587556295,1595959282.866252854, 1595959282.876854949
83, 1595959283.139882228, 1595959283.203609970, 1595959282.989652244, 1595959283.026440370,1595959283.324647612, 1595959283.335524114
84, 1595959283.607828112, 1595959283.668536273, 1595959283.456607292, 1595959283.492265178,1595959283.776810165, 1595959283.788267326
85, 1595959284.064277865, 1595959284.129598963, 1595959283.908861058, 1595959283.949322060,1595959284.261372167, 1595959284.273214432
86, 1595959284.531549293, 1595959284.590439768, 1595959284.384834553, 1595959284.422454697,1595959284.710645392, 1595959284.722433600
87, 1595959284.982734839, 1595959285.044544254, 1595959284.833501976, 1595959284.874148477,1595959285.166589284, 1595959285.177183837
88, 1595959285.450388577, 1595959285.515429682, 1595959285.294861910, 1595959285.333281456,1595959285.636163515, 1595959285.647776561
89, 1595959285.926169521, 1595959285.991631279, 1595959285.765883389, 1595959285.804219963,1595959286.118086289, 1595959286.129950624
90, 1595959286.371916886, 1595959286.424705130, 1595959286.238466377, 1595959286.273649553,1595959286.533929909, 1595959286.545654003
91, 1595959286.821848573, 1595959286.884333771, 1595959286.663055575, 1595959286.701616130,1595959287.001832562, 1595959287.012448766
92, 1595959287.271102662, 1595959287.322479905, 1595959287.125080676, 1595959287.162924870,1595959287.431948780, 1595959287.443322550
93, 1595959287.720724534, 1595959287.786468450, 1595959287.563471882, 1595959287.599622149,1595959287.903439801, 1595959287.913907452
94, 1595959288.185077510, 1595959288.250316754, 1595959288.032204457, 1595959288.072881408,1595959288.368521010, 1595959288.380182038
95, 1595959288.645623236, 1595959288.706762875, 1595959288.501442822, 1595959288.538430763,1595959288.817102878, 1595959288.827328320
96, 1595959289.106706250, 1595959289.175184377, 1595959288.948706927, 1595959288.989877026,1595959289.292760901, 1595959289.304106596
97, 1595959289.563557309, 1595959289.628836502, 1595959289.413291426, 1595959289.449859623,1595959289.742635039, 1595959289.752775904
98, 1595959290.011649799, 1595959290.074194293, 1595959289.862963933, 1595959289.903141380,1595959290.179081938, 1595959290.189267640
99, 1595959290.437888017, 1595959290.492325700, 1595959290.298256706, 1595959290.332718005,1595959290.599943365, 1595959290.610960806
100, 1595959290.870477798, 1595959290.928857385, 1595959290.728595787, 1595959290.764934555,1595959291.039932047, 1595959291.050263369
101, 1595959291.315201711, 1595959291.378780272, 1595959291.167065774, 1595959291.209262049,1595959291.489712738, 1595959291.500716490
102, 1595959291.742637285, 1595959291.802645358, 1595959291.604663794, 1595959291.639685148,1595959291.913137615, 1595959291.924155265
103, 1595959292.179539967, 1595959292.231642999, 1595959292.037897510, 1595959292.073731606,1595959292.348985276, 1595959292.360297516
104, 1595959292.631681987, 1595959292.699139525, 1595959292.476606982, 1595959292.514954661,1595959292.819075353, 1595959292.829831169
105, 1595959293.069578857, 1595959293.136553514, 1595959292.930407241, 1595959292.965879001,1595959293.250416095, 1595959293.260368110
106, 1595959293.530407858, 1595959293.590923676, 1595959293.378986594, 1595959293.416999175,1595959293.702290344, 1595959293.712922472
107, 1595959293.971918310, 1595959294.027749882, 1595959293.826357136, 1595959293.863295560,1595959294.135473705, 1595959294.146167153
108, 1595959294.405088750, 1595959294.470672451, 1595959294.257131956, 1595959294.295589774,1595959294.594863001, 1595959294.606469483
109, 1595959294.878625139, 1595959294.945644634, 1595959294.725196500, 1595959294.765377299,1595959295.065611471, 1595959295.076634080
110, 1595959295.353881575, 1595959295.416196990, 1595959295.199661496, 1595959295.240674593,1595959295.519183279, 1595959295.529788448
111, 1595959295.797927959, 1595959295.864468902, 1595959295.642330542, 1595959295.680738494,1595959295.980660337, 1595959295.991918729
112, 1595959296.260597903, 1595959296.326671120, 1595959296.107601930, 1595959296.145249521,1595959296.437615738, 1595959296.447680546
113, 1595959296.719582120, 1595959296.786944396, 1595959296.562525443, 1595959296.598126060,1595959296.898144423, 1595959296.909351552
114, 1595959297.188311413, 1595959297.252852734, 1595959297.029456047, 1595959297.070412083,1595959297.370859550, 1595959297.382413440
115, 1595959297.654672741, 1595959297.713543730, 1595959297.498416932, 1595959297.540163011,1595959297.822080365, 1595959297.831545586
116, 1595959298.110435605, 1595959298.176454277, 1595959297.952057394, 1595959297.989722445,1595959298.294778660, 1595959298.306756416
117, 1595959298.560707628, 1595959298.620659269, 1595959298.424099182, 1595959298.459100422,1595959298.739108179, 1595959298.750640209
118, 1595959299.004156520, 1595959299.062750449, 1595959298.862582858, 1595959298.899145397,1595959299.174644279, 1595959299.183667545
119, 1595959299.450346887, 1595959299.510820870, 1595959299.299074733, 1595959299.337124470,1595959299.624745400, 1595959299.635189655
120, 1595959299.875819366, 1595959299.935584741, 1595959299.738269182, 1595959299.771863123,1595959300.048997336, 1595959300.059749311
121, 1595959300.320712154, 1595959300.377614182, 1595959300.180286959, 1595959300.217634862,1595959300.493103503, 1595959300.504339128
122, 1595959300.756676450, 1595959300.816775735, 1595959300.612289446, 1595959300.649324950,1595959300.927770220, 1595959300.939257692
123, 1595959301.190072547, 1595959301.243225292, 1595959301.047855159, 1595959301.082522069,1595959301.351069592, 1595959301.362677121
124, 1595959301.644874677, 1595959301.703794694, 1595959301.497401253, 1595959301.536282728,1595959301.822350461, 1595959301.832531694
125, 1595959302.087578294, 1595959302.151260011, 1595959301.943979378, 1595959301.982293044,1595959302.267101471, 1595959302.278543896
126, 1595959302.536447697, 1595959302.598078878, 1595959302.390179033, 1595959302.427450600,1595959302.715292228, 1595959302.725758553
127, 1595959302.994680145, 1595959303.058934279, 1595959302.842088901, 1595959302.879963476,1595959303.169134880, 1595959303.179560627
128, 1595959303.445701284, 1595959303.510378726, 1595959303.301589733, 1595959303.337283239,1595959303.625510810, 1595959303.637172535
129, 1595959303.906786113, 1595959303.972092545, 1595959303.755334468, 1595959303.796619106,1595959304.097828191, 1595959304.109407015
130, 1595959304.364069908, 1595959304.426814636, 1595959304.223539742, 1595959304.258892981,1595959304.543677384, 1595959304.555425782
131, 1595959304.818030312, 1595959304.878479571, 1595959304.675292257, 1595959304.711117763,1595959304.992681720, 1595959305.003766488
132, 1595959305.260570012, 1595959305.315734252, 1595959305.113701831, 1595959305.149919844,1595959305.422664959, 1595959305.432383076
133, 1595959305.696934078, 1595959305.759449029, 1595959305.549384458, 1595959305.586603713,1595959305.882647765, 1595959305.893217944
134, 1595959306.159089433, 1595959306.222404344, 1595959306.010975426, 1595959306.048965099,1595959306.337681837, 1595959306.348545697
135, 1595959306.615973387, 1595959306.676738957, 1595959306.469676158, 1595959306.504848788,1595959306.784656450, 1595959306.794839639
136, 1595959307.044606737, 1595959307.105194631, 1595959306.909346435, 1595959306.944484913,1595959307.205949076, 1595959307.215312958
137, 1595959307.472572056, 1595959307.525516954, 1595959307.337108376, 1595959307.371754963,1595959307.641762655, 1595959307.652890165
138, 1595959307.910960957, 1595959307.964776215, 1595959307.770311083, 1595959307.806177166,1595959308.077517217, 1595959308.086705309
139, 1595959308.344675809, 1595959308.404539660, 1595959308.204384639, 1595959308.241692034,1595959308.509393082, 1595959308.519580391
140, 1595959308.775236076, 1595959308.831544593, 1595959308.633237570, 1595959308.664691927,1595959308.934395461, 1595959308.944661271
141, 1595959309.213136299, 1595959309.278858983, 1595959309.059159337, 1595959309.091800994,1595959309.387251955, 1595959309.397819549
142, 1595959309.645683407, 1595959309.708404528, 1595959309.504277293, 1595959309.536522741,1595959309.823770790, 1595959309.834979665
143, 1595959310.087089375, 1595959310.144153713, 1595959309.946837317, 1595959309.984825453,1595959310.256748119, 1595959310.267379967
144, 1595959310.515897747, 1595959310.570607600, 1595959310.383588093, 1595959310.418577740,1595959310.676894931, 1595959310.686950171
145, 1595959310.955964093, 1595959311.015714102, 1595959310.808399596, 1595959310.847387020,1595959311.126718644, 1595959311.137113032
146, 1595959311.408148715, 1595959311.465627002, 1595959311.264650091, 1595959311.301964121,1595959311.580318598, 1595959311.591911111
147, 1595959311.850651679, 1595959311.905636008, 1595959311.707659752, 1595959311.745098867,1595959312.009154766, 1595959312.019912258
148, 1595959312.265947185, 1595959312.330246508, 1595959312.123767860, 1595959312.161130639,1595959312.448198567, 1595959312.459920356
